    P[dbar]   T[ITS90]      Theta   Salinite      Gamma   Ox[ml/l]  Ox[um/kg]    Fluo[V]    F[Urel]   CSTAR[V]    C660[%]  C660[m-1]
      0.000    24.9100    24.9098    38.4707    25.9947    3.95391    171.703     1.2527     0.2087     4.4335    89.6621     0.1091
      1.000    24.9100    24.9098    38.4707    25.9947    3.95391    171.703     1.2527     0.2087     4.4335    89.6621     0.1091
      2.000    25.0751    25.0747    38.4736    25.9460    3.93098    170.713     1.1483     0.1502     4.4362    89.7184     0.1085
      3.000    25.0028    25.0019    38.4758    25.9697    3.94970    171.523     1.1540     0.1525     4.4389    89.7736     0.1079
      4.000    25.0028    25.0019    38.4751    25.9697    3.94970    171.523     1.1493     0.1506     4.4449    89.8964     0.1065
      5.000    24.9039    24.9028    38.4690    25.9956    3.96995    172.399     1.1540     0.1525     4.4491    89.9824     0.1056
      6.000    24.5433    24.5420    38.4564    26.0966    3.98849    173.192     1.1540     0.1525     4.4530    90.0634     0.1047
      7.000    24.1328    24.1313    38.4436    26.2115    4.05295    175.977     1.1561     0.1533     4.4572    90.1486     0.1037
      8.000    23.1617    23.1600    38.3941    26.4634    4.16126    180.654     1.1530     0.1521     4.4574    90.1527     0.1037
      9.000    22.2621    22.2603    38.3547    26.6949    4.28556    186.029     1.1530     0.1521     4.4585    90.1751     0.1034
     10.000    21.2850    21.2830    38.3348    26.9565    4.41245    191.514     1.1530     0.1521     4.4585    90.1751     0.1034
     11.000    20.4223    20.4202    38.3481    27.2045    4.53240    196.700     1.1570     0.1536     4.4585    90.1751     0.1034
     12.000    19.9135    19.9113    38.3402    27.3359    4.61919    200.458     1.1575     0.1538     4.4502    90.0070     0.1053
     13.000    19.4065    19.4041    38.3387    27.4696    4.71113    204.441     1.1643     0.1565     4.4476    89.9518     0.1059
     14.000    18.8761    18.8736    38.3369    27.6070    4.79616    208.124     1.1651     0.1569     4.4385    89.7663     0.1079
     15.000    18.6117    18.6090    38.3330    27.6724    4.85518    210.683     1.1673     0.1577     4.4335    89.6634     0.1091
     16.000    18.3383    18.3355    38.3420    27.7493    4.87935    211.727     1.1704     0.1590     4.4259    89.5067     0.1109
     17.000    18.2656    18.2626    38.3427    27.7684    4.89578    212.439     1.1814     0.1635     4.4194    89.3742     0.1123
     18.000    17.8587    17.8556    38.3363    27.8662    4.93132    213.980     1.1855     0.1652     4.4077    89.1336     0.1150
     19.000    17.4795    17.4762    38.3562    27.9760    4.96676    215.512     1.1892     0.1668     4.3979    88.9342     0.1173
     20.000    17.0941    17.0907    38.3465    28.0634    5.01325    217.529     1.1945     0.1691     4.3888    88.7475     0.1194
     21.000    16.7317    16.7282    38.3468    28.1516    5.03085    218.291     1.1990     0.1710     4.3877    88.7231     0.1197
     22.000    16.5689    16.5653    38.3519    28.1947    5.03085    218.291     1.2057     0.1739     4.3874    88.7184     0.1197
     23.000    16.3603    16.3565    38.3543    28.2463    5.03085    218.291     1.2057     0.1739     4.3859    88.6869     0.1201
     24.000    16.1592    16.1553    38.3558    28.2952    5.02494    218.035     1.2067     0.1744     4.3820    88.6079     0.1210
     25.000    15.8246    15.8206    38.3645    28.3804    5.02494    218.035     1.2172     0.1791     4.3732    88.4280     0.1230
     26.000    15.5473    15.5432    38.3706    28.4494    5.02494    218.035     1.2196     0.1801     4.3685    88.3312     0.1241
     27.000    15.2797    15.2755    38.3766    28.5156    5.03474    218.461     1.2403     0.1898     4.3532    88.0174     0.1276
     28.000    15.1124    15.1080    38.3820    28.5578    5.03566    218.500     1.2536     0.1962     4.3389    87.7243     0.1310
     29.000    14.9570    14.9525    38.3878    28.5975    5.03646    218.535     1.2711     0.2050     4.3197    87.3291     0.1355
     30.000    14.8180    14.8134    38.3939    28.6335    5.03646    218.535     1.2835     0.2115     4.3131    87.1946     0.1370
     31.000    14.7133    14.7086    38.3985    28.6605    5.03646    218.535     1.3038     0.2225     4.3003    86.9323     0.1400
     32.000    14.6358    14.6309    38.4042    28.6822    5.03471    218.460     1.3337     0.2395     4.2947    86.8172     0.1414
     33.000    14.4548    14.4498    38.4089    28.7260    5.02836    218.185     1.3347     0.2401     4.2744    86.4002     0.1462
     34.000    14.3279    14.3228    38.4042    28.7504    5.01474    217.596     1.3571     0.2538     4.2553    86.0090     0.1507
     35.000    14.2696    14.2643    38.4061    28.7647    4.98204    216.178     1.4085     0.2877     4.2429    85.7558     0.1537
     36.000    14.1677    14.1623    38.4035    28.7849    4.95554    215.030     1.4404     0.3113     4.2047    84.9710     0.1629
     37.000    14.0723    14.0668    38.3969    28.8007    4.91317    213.193     1.4677     0.3327     4.1905    84.6799     0.1663
     38.000    13.9825    13.9769    38.4007    28.8232    4.88622    212.024     1.5509     0.4070     4.1905    84.6799     0.1663
     39.000    13.9180    13.9122    38.4156    28.8487    4.86261    210.998     1.5879     0.4439     4.1905    84.6799     0.1663
     40.000    13.8957    13.8898    38.4263    28.8618    4.82964    209.566     1.6220     0.4818     4.1964    84.8022     0.1648
     41.000    13.8303    13.8243    38.4296    28.8785    4.82924    209.549     1.6527     0.5185     4.1970    84.8129     0.1647
     42.000    13.8147    13.8085    38.4327    28.8842    4.81076    208.747     1.6769     0.5489     4.1972    84.8175     0.1647
     43.000    13.7777    13.7714    38.4342    28.8934    4.74546    205.914     1.6884     0.5641     4.2023    84.9235     0.1634
     44.000    13.7337    13.7273    38.4284    28.8984    4.67922    203.041     1.6945     0.5723     4.2148    85.1791     0.1604
     45.000    13.6829    13.6763    38.4189    28.9020    4.59283    199.294     1.6945     0.5723     4.2259    85.4073     0.1577
     46.000    13.6193    13.6126    38.4190    28.9156    4.50882    195.650     1.6999     0.5796     4.2411    85.7180     0.1541
     47.000    13.5666    13.5598    38.4216    28.9289    4.45455    193.295     1.6999     0.5796     4.2522    85.9453     0.1514
     48.000    13.5387    13.5317    38.4223    28.9354    4.40283    191.051     1.6999     0.5796     4.2662    86.2332     0.1481
     49.000    13.5371    13.5300    38.4324    28.9436    4.35115    188.808     1.7089     0.5921     4.2913    86.7469     0.1422
     50.000    13.5146    13.5074    38.4329    28.9488    4.30727    186.903     1.7124     0.5970     4.3002    86.9298     0.1400
     51.000    13.5030    13.4956    38.4362    28.9538    4.23780    183.889     1.7124     0.5970     4.3165    87.2641     0.1362
     52.000    13.4767    13.4692    38.4392    28.9618    4.17033    180.961     1.7124     0.5970     4.3334    87.6112     0.1322
     53.000    13.4430    13.4353    38.4376    28.9677    4.08099    177.085     1.6965     0.5750     4.3409    87.7638     0.1305
     54.000    13.4047    13.3969    38.4316    28.9712    4.00488    173.784     1.6940     0.5716     4.3554    88.0615     0.1271
     55.000    13.3728    13.3647    38.4268    28.9745    3.96561    172.080     1.6745     0.5457     4.3745    88.4543     0.1227
     56.000    13.3717    13.3638    38.4314    28.9778    3.93305    170.667     1.6558     0.5222     4.3939    88.8521     0.1182
     57.000    13.3639    13.3557    38.4314    28.9797    3.90242    169.338     1.6266     0.4870     4.4041    89.0614     0.1158
     58.000    13.3495    13.3412    38.4311    28.9826    3.88958    168.781     1.5884     0.4446     4.4160    89.3047     0.1131
     59.000    13.3472    13.3387    38.4341    28.9854    3.87708    168.238     1.5883     0.4445     4.4218    89.4246     0.1118
     60.000    13.3457    13.3371    38.4374    28.9883    3.86851    167.866     1.5577     0.4130     4.4328    89.6490     0.1093
     61.000    13.3411    13.3322    38.4385    28.9903    3.86721    167.810     1.5411     0.3968     4.4412    89.8210     0.1073
     62.000    13.3407    13.3319    38.4398    28.9912    3.86709    167.804     1.5160     0.3736     4.4444    89.8878     0.1066
     63.000    13.3405    13.3314    38.4408    28.9922    3.85471    167.267     1.4974     0.3571     4.4485    89.9703     0.1057
     64.000    13.3271    13.3179    38.4411    28.9952    3.84299    166.758     1.4801     0.3426     4.4603    90.2125     0.1030
     65.000    13.3187    13.3094    38.4417    28.9975    3.83979    166.620     1.4612     0.3273     4.4701    90.4135     0.1008
     66.000    13.3184    13.3089    38.4416    28.9975    3.83948    166.606     1.4307     0.3039     4.4744    90.5019     0.0998
     67.000    13.3182    13.3086    38.4417    28.9976    3.83885    166.579     1.4043     0.2849     4.4769    90.5541     0.0992
     68.000    13.3182    13.3084    38.4429    28.9986    3.83885    166.579     1.3889     0.2743     4.4800    90.6163     0.0985
     69.000    13.3173    13.3074    38.4453    29.0007    3.83885    166.579     1.3675     0.2604     4.4908    90.8393     0.0961
     70.000    13.3132    13.3031    38.4462    29.0023    3.84101    166.672     1.3299     0.2373     4.4912    90.8464     0.0960
     71.000    13.3100    13.2998    38.4473    29.0039    3.84782    166.968     1.3255     0.2347     4.4915    90.8534     0.0959
     72.000    13.3087    13.2984    38.4485    29.0051    3.85343    167.211     1.3220     0.2327     4.4930    90.8842     0.0956
     73.000    13.3086    13.2981    38.4491    29.0056    3.85344    167.211     1.3099     0.2258     4.4948    90.9195     0.0952
     74.000    13.3067    13.2961    38.4509    29.0074    3.85444    167.254     1.3076     0.2245     4.4963    90.9522     0.0948
     75.000    13.3061    13.2950    38.4539    29.0102    3.85444    167.254     1.2896     0.2147     4.4992    91.0111     0.0942
     76.000    13.3061    13.2950    38.4560    29.0118    3.85444    167.254     1.2849     0.2122     4.5028    91.0841     0.0934
     77.000    13.3061    13.2950    38.4587    29.0137    3.85392    167.231     1.2720     0.2055     4.5050    91.1295     0.0929
     78.000    13.3088    13.2976    38.4612    29.0151    3.85092    167.100     1.2480     0.1935     4.5066    91.1622     0.0925
     79.000    13.3096    13.2982    38.4643    29.0174    3.84185    166.706     1.2417     0.1905     4.5084    91.1998     0.0921
     80.000    13.3110    13.2995    38.4655    29.0181    3.84139    166.686     1.2315     0.1857     4.5088    91.2061     0.0921
     81.000    13.3131    13.3015    38.4663    29.0183    3.83778    166.530     1.2301     0.1850     4.5089    91.2088     0.0920
     82.000    13.3131    13.3015    38.4675    29.0190    3.83778    166.530     1.2298     0.1848     4.5098    91.2284     0.0918
     83.000    13.3131    13.3015    38.4713    29.0220    3.83778    166.530     1.2206     0.1806     4.5108    91.2484     0.0916
     84.000    13.3116    13.2995    38.4713    29.0225    3.84195    166.710     1.2183     0.1796     4.5120    91.2738     0.0913
     85.000    13.3116    13.2995    38.4717    29.0232    3.84584    166.878     1.2183     0.1796     4.5127    91.2879     0.0911
     86.000    13.3116    13.2995    38.4723    29.0236    3.84584    166.878     1.2183     0.1796     4.5128    91.2898     0.0911
     87.000    13.3129    13.3004    38.4736    29.0241    3.84584    166.878     1.2171     0.1790     4.5139    91.3117     0.0909
     88.000    13.3154    13.3027    38.4748    29.0246    3.83856    166.562     1.2111     0.1763     4.5142    91.3182     0.0909
     89.000    13.3214    13.3086    38.4789    29.0265    3.83056    166.215     1.2041     0.1733     4.5159    91.3526     0.0904
     90.000    13.3215    13.3086    38.4818    29.0278    3.83056    166.215     1.1916     0.1678     4.5167    91.3693     0.0902
     91.000    13.3215    13.3086    38.4823    29.0282    3.83056    166.215     1.1829     0.1641     4.5170    91.3755     0.0902
     92.000    13.3215    13.3083    38.4815    29.0286    3.83384    166.357     1.1829     0.1641     4.5172    91.3786     0.0901
     93.000    13.3215    13.3080    38.4811    29.0291    3.83390    166.359     1.1829     0.1641     4.5172    91.3786     0.0901
     94.000    13.3215    13.3080    38.4817    29.0295    3.83390    166.359     1.1900     0.1672     4.5172    91.3786     0.0901
     95.000    13.3217    13.3080    38.4844    29.0309    3.83390    166.359     1.1900     0.1672     4.5175    91.3850     0.0901
     96.000    13.3268    13.3130    38.4865    29.0315    3.82968    166.175     1.1900     0.1672     4.5184    91.4051     0.0899
     97.000    13.3326    13.3186    38.4891    29.0323    3.82741    166.076     1.1710     0.1592     4.5191    91.4196     0.0897
     98.000    13.3352    13.3211    38.4899    29.0324    3.82374    165.917     1.1599     0.1548     4.5195    91.4271     0.0897
     99.000    13.3391    13.3248    38.4914    29.0328    3.81719    165.632     1.1591     0.1545     4.5195    91.4272     0.0897
    100.000    13.3456    13.3312    38.4936    29.0332    3.80776    165.223     1.1559     0.1532     4.5200    91.4383     0.0895
    101.000    13.3566    13.3420    38.4983    29.0345    3.79775    164.788     1.1511     0.1513     4.5202    91.4426     0.0895
    102.000    13.3672    13.3525    38.5025    29.0356    3.78896    164.406     1.1346     0.1451     4.5203    91.4445     0.0894
    103.000    13.3784    13.3635    38.5070    29.0367    3.77599    163.843     1.1236     0.1410     4.5203    91.4445     0.0894
    104.000    13.3826    13.3676    38.5085    29.0370    3.76870    163.526     1.1179     0.1389     4.5204    91.4455     0.0894
    105.000    13.3826    13.3676    38.5091    29.0370    3.76870    163.526     1.1132     0.1372     4.5203    91.4445     0.0894
    106.000    13.3826    13.3676    38.5096    29.0375    3.76870    163.526     1.1062     0.1347     4.5203    91.4445     0.0894
    107.000    13.3817    13.3662    38.5101    29.0386    3.76875    163.528     1.1059     0.1346     4.5204    91.4455     0.0894
    108.000    13.3808    13.3652    38.5105    29.0391    3.76875    163.528     1.1059     0.1346     4.5204    91.4461     0.0894
    109.000    13.3788    13.3631    38.5106    29.0396    3.76875    163.528     1.1042     0.1340     4.5204    91.4467     0.0894
    110.000    13.3730    13.3571    38.5098    29.0403    3.76796    163.494     1.1042     0.1340     4.5206    91.4494     0.0894
    111.000    13.3674    13.3514    38.5090    29.0409    3.76795    163.494     1.1042     0.1340     4.5211    91.4590     0.0893
    112.000    13.3607    13.3445    38.5079    29.0414    3.76760    163.478     1.1064     0.1348     4.5213    91.4640     0.0892
    113.000    13.3560    13.3397    38.5076    29.0422    3.76795    163.494     1.1158     0.1381     4.5215    91.4676     0.0892
    114.000    13.3517    13.3353    38.5076    29.0432    3.76796    163.494     1.1158     0.1381     4.5215    91.4680     0.0892
    115.000    13.3500    13.3334    38.5078    29.0437    3.77334    163.728     1.1158     0.1381     4.5223    91.4831     0.0890
    116.000    13.3461    13.3294    38.5073    29.0442    3.77691    163.883     1.1113     0.1365     4.5223    91.4840     0.0890
    117.000    13.3448    13.3279    38.5071    29.0443    3.77967    164.003     1.1050     0.1343     4.5223    91.4842     0.0890
    118.000    13.3432    13.3262    38.5070    29.0446    3.78219    164.112     1.0967     0.1315     4.5223    91.4845     0.0890
    119.000    13.3427    13.3253    38.5076    29.0454    3.78261    164.130     1.1050     0.1343     4.5224    91.4863     0.0890
    120.000    13.3420    13.3247    38.5083    29.0459    3.78283    164.140     1.0940     0.1305     4.5226    91.4892     0.0889
    121.000    13.3418    13.3246    38.5085    29.0459    3.78375    164.179     1.0932     0.1303     4.5226    91.4897     0.0889
    122.000    13.3414    13.3238    38.5086    29.0463    3.78586    164.271     1.0940     0.1305     4.5226    91.4907     0.0889
    123.000    13.3389    13.3212    38.5088    29.0470    3.79016    164.458     1.1032     0.1337     4.5227    91.4913     0.0889
    124.000    13.3383    13.3204    38.5090    29.0474    3.79119    164.502     1.1032     0.1337     4.5228    91.4947     0.0889
    125.000    13.3364    13.3182    38.5095    29.0483    3.79119    164.502     1.1039     0.1340     4.5228    91.4950     0.0889
    126.000    13.3364    13.3182    38.5097    29.0483    3.79016    164.458     1.1102     0.1362     4.5228    91.4950     0.0889
    127.000    13.3364    13.3182    38.5108    29.0494    3.78953    164.430     1.1102     0.1362     4.5228    91.4950     0.0889
    128.000    13.3377    13.3192    38.5123    29.0502    3.78603    164.278     1.1125     0.1370     4.5229    91.4954     0.0889
    129.000    13.3381    13.3194    38.5131    29.0506    3.78440    164.207     1.1102     0.1362     4.5229    91.4954     0.0889
    130.000    13.3381    13.3194    38.5136    29.0512    3.77983    164.009     1.1113     0.1365     4.5229    91.4954     0.0889
    131.000    13.3381    13.3194    38.5140    29.0514    3.77893    163.970     1.1097     0.1360     4.5229    91.4957     0.0889
    132.000    13.3375    13.3185    38.5146    29.0521    3.77770    163.917     1.1103     0.1362     4.5229    91.4958     0.0889
    133.000    13.3375    13.3185    38.5153    29.0531    3.77677    163.876     1.1063     0.1348     4.5232    91.5031     0.0888
    134.000    13.3375    13.3185    38.5175    29.0545    3.77420    163.764     1.1103     0.1362     4.5235    91.5081     0.0888
    135.000    13.3383    13.3188    38.5186    29.0551    3.77007    163.585     1.1055     0.1345     4.5236    91.5115     0.0887
    136.000    13.3391    13.3195    38.5196    29.0558    3.76729    163.464     1.1042     0.1340     4.5236    91.5115     0.0887
    137.000    13.3406    13.3208    38.5202    29.0560    3.76569    163.395     1.1012     0.1330     4.5238    91.5143     0.0887
    138.000    13.3412    13.3213    38.5209    29.0564    3.76292    163.274     1.0979     0.1318     4.5238    91.5158     0.0887
    139.000    13.3424    13.3223    38.5212    29.0564    3.76292    163.274     1.0979     0.1318     4.5238    91.5153     0.0887
    140.000    13.3435    13.3233    38.5220    29.0569    3.76292    163.274     1.0979     0.1318     4.5240    91.5196     0.0886
    141.000    13.3448    13.3244    38.5226    29.0571    3.76268    163.263     1.0993     0.1323     4.5241    91.5221     0.0886
    142.000    13.3458    13.3253    38.5230    29.0572    3.76268    163.263     1.0993     0.1323     4.5240    91.5196     0.0886
    143.000    13.3460    13.3254    38.5232    29.0574    3.76268    163.263     1.0993     0.1323     4.5242    91.5231     0.0886
    144.000    13.3465    13.3257    38.5239    29.0578    3.76268    163.263     1.0993     0.1323     4.5242    91.5239     0.0886
    145.000    13.3472    13.3263    38.5246    29.0582    3.76226    163.245     1.1014     0.1331     4.5242    91.5231     0.0886
    146.000    13.3479    13.3268    38.5248    29.0583    3.76226    163.245     1.0985     0.1320     4.5239    91.5169     0.0887
    147.000    13.3485    13.3273    38.5255    29.0587    3.76304    163.279     1.1031     0.1337     4.5239    91.5169     0.0887
    148.000    13.3502    13.3288    38.5266    29.0593    3.76485    163.358     1.1031     0.1337     4.5239    91.5164     0.0887
    149.000    13.3517    13.3301    38.5279    29.0600    3.76406    163.322     1.0985     0.1320     4.5239    91.5164     0.0887
    150.000    13.3519    13.3302    38.5283    29.0603    3.76406    163.322     1.0985     0.1320     4.5238    91.5148     0.0887
    151.000    13.3519    13.3302    38.5287    29.0606    3.76406    163.322     1.1005     0.1328     4.5236    91.5113     0.0887
    152.000    13.3531    13.3311    38.5299    29.0613    3.76151    163.212     1.1000     0.1326     4.5231    91.5014     0.0888
    153.000    13.3540    13.3316    38.5307    29.0616    3.75905    163.105     1.1005     0.1328     4.5230    91.4985     0.0888
    154.000    13.3542    13.3320    38.5310    29.0620    3.75904    163.105     1.1044     0.1341     4.5230    91.4985     0.0888
    155.000    13.3551    13.3330    38.5310    29.0621    3.75621    162.982     1.1049     0.1343     4.5230    91.4985     0.0888
    156.000    13.3557    13.3332    38.5320    29.0625    3.75593    162.970     1.1052     0.1344     4.5230    91.4985     0.0888
    157.000    13.3604    13.3377    38.5334    29.0627    3.75464    162.913     1.1052     0.1344     4.5229    91.4956     0.0889
    158.000    13.3651    13.3423    38.5348    29.0628    3.74554    162.518     1.1052     0.1344     4.5228    91.4937     0.0889
    159.000    13.3730    13.3500    38.5381    29.0637    3.73153    161.910     1.1044     0.1341     4.5227    91.4922     0.0889
    160.000    13.3852    13.3620    38.5421    29.0642    3.72153    161.475     1.0970     0.1315     4.5225    91.4883     0.0889
    161.000    13.3869    13.3633    38.5429    29.0644    3.71776    161.311     1.0970     0.1315     4.5225    91.4883     0.0889
    162.000    13.3869    13.3633    38.5431    29.0646    3.71758    161.303     1.0970     0.1315     4.5227    91.4922     0.0889
    163.000    13.3869    13.3633    38.5430    29.0647    3.71742    161.297     1.0970     0.1315     4.5229    91.4974     0.0888
    164.000    13.3869    13.3633    38.5433    29.0651    3.71691    161.274     1.0922     0.1299     4.5230    91.4977     0.0888
    165.000    13.3869    13.3633    38.5436    29.0652    3.71157    161.043     1.0922     0.1299     4.5230    91.4977     0.0888
    166.000    13.3877    13.3637    38.5444    29.0657    3.71051    160.997     1.0904     0.1293     4.5230    91.4977     0.0888
    167.000    13.3898    13.3656    38.5451    29.0658    3.70867    160.917     1.0904     0.1293     4.5227    91.4921     0.0889
    168.000    13.3933    13.3690    38.5469    29.0665    3.70759    160.870     1.0904     0.1293     4.5224    91.4852     0.0890
    169.000    13.3939    13.3694    38.5471    29.0666    3.70464    160.741     1.0953     0.1310     4.5218    91.4741     0.0891
    170.000    13.3953    13.3707    38.5476    29.0666    3.70417    160.721     1.0953     0.1310     4.5213    91.4629     0.0892
    171.000    13.3959    13.3710    38.5477    29.0667    3.70303    160.671     1.0975     0.1317     4.5212    91.4614     0.0892
    172.000    13.3962    13.3714    38.5478    29.0667    3.70219    160.635     1.0975     0.1317     4.5211    91.4590     0.0893
    173.000    13.3967    13.3716    38.5478    29.0668    3.69951    160.519     1.0975     0.1317     4.5208    91.4543     0.0893
    174.000    13.3983    13.3730    38.5489    29.0672    3.69807    160.456     1.0961     0.1312     4.5208    91.4537     0.0893
    175.000    13.3984    13.3731    38.5489    29.0672    3.69500    160.323     1.0962     0.1313     4.5208    91.4537     0.0893
    176.000    13.3992    13.3737    38.5496    29.0676    3.68833    160.033     1.0962     0.1313     4.5208    91.4537     0.0893
    177.000    13.4095    13.3838    38.5539    29.0688    3.68088    159.710     1.0962     0.1313     4.5212    91.4623     0.0892
    178.000    13.4156    13.3898    38.5562    29.0693    3.67384    159.404     1.0962     0.1313     4.5217    91.4708     0.0891
    179.000    13.4171    13.3911    38.5565    29.0693    3.66591    159.060     1.1013     0.1330     4.5220    91.4775     0.0891
    180.000    13.4190    13.3929    38.5573    29.0695    3.65950    158.782     1.1013     0.1330     4.5221    91.4796     0.0890
    181.000    13.4246    13.3983    38.5595    29.0701    3.65294    158.496     1.0998     0.1325     4.5221    91.4796     0.0890
    182.000    13.4274    13.4010    38.5612    29.0708    3.64515    158.158     1.0998     0.1325     4.5223    91.4836     0.0890
    183.000    13.4289    13.4023    38.5620    29.0712    3.64228    158.034     1.0966     0.1314     4.5225    91.4878     0.0889
    184.000    13.4298    13.4031    38.5622    29.0712    3.63885    157.885     1.0966     0.1314     4.5225    91.4890     0.0889
    185.000    13.4313    13.4044    38.5627    29.0713    3.63543    157.736     1.0966     0.1314     4.5226    91.4910     0.0889
    186.000    13.4335    13.4065    38.5633    29.0713    3.63324    157.641     1.0968     0.1315     4.5227    91.4923     0.0889
    187.000    13.4355    13.4083    38.5640    29.0714    3.63284    157.624     1.0976     0.1317     4.5228    91.4947     0.0889
    188.000    13.4365    13.4092    38.5644    29.0716    3.63068    157.530     1.0976     0.1317     4.5227    91.4923     0.0889
    189.000    13.4437    13.4162    38.5670    29.0721    3.62759    157.396     1.1011     0.1330     4.5227    91.4925     0.0889
    190.000    13.4465    13.4189    38.5679    29.0722    3.62100    157.110     1.0976     0.1317     4.5227    91.4923     0.0889
    191.000    13.4473    13.4195    38.5681    29.0722    3.61724    156.946     1.0969     0.1315     4.5227    91.4925     0.0889
    192.000    13.4473    13.4195    38.5684    29.0723    3.61724    156.946     1.0969     0.1315     4.5227    91.4912     0.0889
    193.000    13.4473    13.4195    38.5684    29.0723    3.61724    156.946     1.0969     0.1315     4.5225    91.4890     0.0889
    194.000    13.4431    13.4149    38.5673    29.0726    3.61961    157.049     1.0850     0.1275     4.5225    91.4880     0.0889
    195.000    13.4412    13.4129    38.5668    29.0727    3.62784    157.406     1.0892     0.1290     4.5222    91.4828     0.0890
    196.000    13.4304    13.4016    38.5646    29.0734    3.63090    157.539     1.0892     0.1290     4.5211    91.4598     0.0893
    197.000    13.4304    13.4016    38.5644    29.0737    3.63158    157.569     1.0850     0.1275     4.5200    91.4379     0.0895
    198.000    13.4304    13.4016    38.5659    29.0743    3.63158    157.569     1.0892     0.1290     4.5194    91.4248     0.0897
    199.000    13.4333    13.4044    38.5670    29.0746    3.63090    157.539     1.0929     0.1302     4.5193    91.4225     0.0897
    200.000    13.4341    13.4050    38.5675    29.0749    3.62550    157.305     1.0929     0.1302     4.5192    91.4216     0.0897
    201.000    13.4394    13.4102    38.5693    29.0752    3.61842    156.997     1.0929     0.1302     4.5192    91.4216     0.0897
    202.000    13.4432    13.4138    38.5706    29.0754    3.61127    156.687     1.0961     0.1312     4.5193    91.4225     0.0897
    203.000    13.4461    13.4166    38.5718    29.0757    3.60583    156.451     1.0970     0.1316     4.5197    91.4323     0.0896
    204.000    13.4461    13.4166    38.5729    29.0760    3.60583    156.451     1.0961     0.1312     4.5197    91.4323     0.0896
    205.000    13.4461    13.4166    38.5726    29.0760    3.60583    156.451     1.0961     0.1312     4.5197    91.4323     0.0896
    206.000    13.4386    13.4087    38.5709    29.0767    3.60868    156.575     1.0928     0.1301     4.5192    91.4217     0.0897
    207.000    13.4380    13.4076    38.5707    29.0769    3.61088    156.670     1.0879     0.1285     4.5192    91.4217     0.0897
    208.000    13.4380    13.4076    38.5710    29.0771    3.61088    156.670     1.0879     0.1285     4.5189    91.4161     0.0898
    209.000    13.4376    13.4074    38.5712    29.0772    3.61236    156.735     1.0879     0.1285     4.5188    91.4138     0.0898
    210.000    13.4376    13.4074    38.5714    29.0772    3.61386    156.800     1.0901     0.1292     4.5187    91.4117     0.0898
    211.000    13.4371    13.4064    38.5711    29.0774    3.61174    156.708     1.0901     0.1292     4.5187    91.4108     0.0898
    212.000    13.4350    13.4042    38.5708    29.0776    3.61174    156.708     1.0905     0.1293     4.5178    91.3914     0.0900
    213.000    13.4344    13.4034    38.5708    29.0778    3.61174    156.708     1.0905     0.1293     4.5176    91.3873     0.0900
    214.000    13.4344    13.4031    38.5709    29.0780    3.61032    156.646     1.0905     0.1293     4.5176    91.3872     0.0900
    215.000    13.4344    13.4031    38.5709    29.0780    3.61006    156.634     1.0903     0.1293     4.5176    91.3872     0.0900
    216.000    13.4345    13.4031    38.5716    29.0784    3.60861    156.571     1.0901     0.1292     4.5176    91.3872     0.0900
    217.000    13.4363    13.4047    38.5720    29.0784    3.60861    156.571     1.0901     0.1292     4.5180    91.3958     0.0900
    218.000    13.4367    13.4050    38.5723    29.0785    3.60861    156.571     1.0903     0.1293     4.5180    91.3958     0.0900
    219.000    13.4376    13.4056    38.5724    29.0786    3.60861    156.571     1.0912     0.1296     4.5180    91.3971     0.0899
    220.000    13.4376    13.4058    38.5727    29.0786    3.60876    156.578     1.0912     0.1296     4.5183    91.4021     0.0899
    221.000    13.4384    13.4063    38.5727    29.0788    3.60876    156.578     1.0951     0.1309     4.5191    91.4186     0.0898
    222.000    13.4412    13.4089    38.5740    29.0791    3.60839    156.562     1.0951     0.1309     4.5195    91.4284     0.0896
    223.000    13.4414    13.4089    38.5744    29.0791    3.60834    156.560     1.0912     0.1296     4.5196    91.4289     0.0896
    224.000    13.4414    13.4089    38.5743    29.0792    3.60834    156.560     1.0901     0.1292     4.5202    91.4410     0.0895
    225.000    13.4414    13.4087    38.5742    29.0793    3.60834    156.560     1.0901     0.1292     4.5206    91.4501     0.0894
    226.000    13.4410    13.4081    38.5744    29.0795    3.61155    156.699     1.0901     0.1292     4.5208    91.4530     0.0893
    227.000    13.4410    13.4080    38.5743    29.0795    3.61165    156.703     1.0901     0.1292     4.5210    91.4566     0.0893
    228.000    13.4398    13.4066    38.5739    29.0795    3.61255    156.742     1.0944     0.1307     4.5211    91.4585     0.0893
    229.000    13.4380    13.4047    38.5735    29.0796    3.61675    156.924     1.0944     0.1307     4.5211    91.4585     0.0893
    230.000    13.4340    13.4005    38.5725    29.0797    3.61948    157.043     1.0950     0.1309     4.5208    91.4530     0.0893
    231.000    13.4333    13.3997    38.5731    29.0804    3.61976    157.055     1.0999     0.1325     4.5205    91.4483     0.0894
    232.000    13.4330    13.3993    38.5730    29.0804    3.61976    157.055     1.1002     0.1326     4.5205    91.4483     0.0894
    233.000    13.4324    13.3985    38.5730    29.0805    3.61976    157.055     1.1002     0.1326     4.5204    91.4455     0.0894
    234.000    13.4324    13.3984    38.5731    29.0806    3.61746    156.955     1.1002     0.1326     4.5204    91.4455     0.0894
    235.000    13.4316    13.3974    38.5728    29.0806    3.61746    156.955     1.1017     0.1332     4.5206    91.4492     0.0894
    236.000    13.4305    13.3962    38.5728    29.0808    3.61746    156.955     1.0960     0.1312     4.5207    91.4517     0.0894
    237.000    13.4295    13.3950    38.5725    29.0809    3.62212    157.158     1.0960     0.1312     4.5212    91.4611     0.0892
    238.000    13.4282    13.3936    38.5723    29.0810    3.62483    157.275     1.0960     0.1312     4.5213    91.4641     0.0892
    239.000    13.4282    13.3936    38.5717    29.0811    3.62483    157.275     1.0975     0.1317     4.5217    91.4711     0.0891
    240.000    13.4282    13.3936    38.5717    29.0814    3.62483    157.275     1.0975     0.1317     4.5218    91.4744     0.0891
    241.000    13.4336    13.3985    38.5751    29.0822    3.61731    156.948     1.1014     0.1331     4.5221    91.4788     0.0890
    242.000    13.4455    13.4103    38.5785    29.0823    3.61246    156.737     1.1041     0.1340     4.5228    91.4939     0.0889
    243.000    13.4486    13.4132    38.5793    29.0823    3.60942    156.605     1.1041     0.1340     4.5229    91.4968     0.0888
    244.000    13.4490    13.4133    38.5795    29.0823    3.60560    156.440     1.1014     0.1331     4.5229    91.4968     0.0888
    245.000    13.4490    13.4133    38.5795    29.0823    3.60560    156.440     1.0989     0.1322     4.5230    91.4975     0.0888
    246.000    13.4490    13.4133    38.5793    29.0824    3.60560    156.440     1.0989     0.1322     4.5230    91.4993     0.0888
    247.000    13.4456    13.4096    38.5782    29.0824    3.60922    156.597     1.0989     0.1322     4.5230    91.4975     0.0888
    248.000    13.4375    13.4014    38.5764    29.0825    3.61690    156.930     1.1009     0.1329     4.5229    91.4958     0.0889
    249.000    13.4243    13.3881    38.5732    29.0829    3.63020    157.508     1.1053     0.1344     4.5227    91.4916     0.0889
    250.000    13.4143    13.3779    38.5711    29.0834    3.63335    157.645     1.1053     0.1344     4.5226    91.4902     0.0889
    251.000    13.4143    13.3779    38.5711    29.0836    3.63335    157.645     1.1009     0.1329     4.5226    91.4902     0.0889
    252.000    13.4143    13.3779    38.5710    29.0836    3.63373    157.661     1.0999     0.1326     4.5226    91.4902     0.0889
    253.000    13.4147    13.3779    38.5715    29.0836    3.63417    157.681     1.0969     0.1315     4.5226    91.4902     0.0889
    254.000    13.4157    13.3785    38.5715    29.0837    3.63441    157.691     1.0938     0.1305     4.5226    91.4902     0.0889
    255.000    13.4157    13.3785    38.5716    29.0837    3.63459    157.699     1.0938     0.1305     4.5226    91.4902     0.0889
    256.000    13.4157    13.3785    38.5717    29.0838    3.63459    157.699     1.0969     0.1315     4.5226    91.4903     0.0889
    257.000    13.4157    13.3783    38.5717    29.0838    3.63459    157.699     1.1020     0.1333     4.5226    91.4896     0.0889
    258.000    13.4156    13.3781    38.5717    29.0839    3.63459    157.699     1.1020     0.1333     4.5226    91.4895     0.0889
    259.000    13.4138    13.3761    38.5714    29.0840    3.63459    157.699     1.1020     0.1333     4.5225    91.4880     0.0889
    260.000    13.4109    13.3731    38.5707    29.0841    3.63910    157.894     1.0948     0.1308     4.5226    91.4895     0.0889
    261.000    13.4091    13.3711    38.5703    29.0842    3.64010    157.938     1.0948     0.1308     4.5225    91.4880     0.0889
    262.000    13.4062    13.3680    38.5698    29.0845    3.64010    157.938     1.0948     0.1308     4.5225    91.4880     0.0889
    263.000    13.4062    13.3680    38.5698    29.0846    3.64010    157.938     1.0993     0.1323     4.5223    91.4848     0.0890
    264.000    13.4062    13.3678    38.5701    29.0846    3.63832    157.861     1.1028     0.1336     4.5223    91.4833     0.0890
    265.000    13.4062    13.3678    38.5700    29.0848    3.63243    157.605     1.1051     0.1344     4.5221    91.4790     0.0890
    266.000    13.4062    13.3675    38.5701    29.0848    3.63011    157.505     1.1051     0.1344     4.5216    91.4700     0.0891
    267.000    13.4062    13.3675    38.5701    29.0849    3.62907    157.460     1.1028     0.1336     4.5214    91.4646     0.0892
    268.000    13.4059    13.3669    38.5701    29.0849    3.62907    157.460     1.0896     0.1290     4.5205    91.4482     0.0894
    269.000    13.4044    13.3653    38.5696    29.0849    3.63002    157.501     1.0896     0.1290     4.5205    91.4475     0.0894
    270.000    13.4026    13.3633    38.5693    29.0851    3.63002    157.501     1.0896     0.1290     4.5205    91.4475     0.0894
    271.000    13.3975    13.3581    38.5682    29.0854    3.63063    157.528     1.0982     0.1319     4.5205    91.4482     0.0894
    272.000    13.3944    13.3549    38.5676    29.0855    3.63290    157.626     1.1023     0.1334     4.5207    91.4511     0.0894
    273.000    13.3936    13.3539    38.5674    29.0856    3.63290    157.626     1.1023     0.1334     4.5208    91.4531     0.0893
    274.000    13.3931    13.3533    38.5673    29.0857    3.63290    157.626     1.1018     0.1332     4.5209    91.4551     0.0893
    275.000    13.3931    13.3530    38.5672    29.0857    3.63290    157.626     1.0982     0.1319     4.5210    91.4567     0.0893
    276.000    13.3926    13.3526    38.5673    29.0857    3.63320    157.639     1.0958     0.1311     4.5210    91.4573     0.0893
    277.000    13.3926    13.3523    38.5672    29.0858    3.63320    157.639     1.0958     0.1311     4.5211    91.4592     0.0893
    278.000    13.3900    13.3496    38.5668    29.0860    3.63320    157.639     1.0932     0.1303     4.5211    91.4594     0.0893
    279.000    13.3890    13.3484    38.5665    29.0860    3.63006    157.503     1.0932     0.1303     4.5214    91.4649     0.0892
    280.000    13.3887    13.3478    38.5665    29.0862    3.62475    157.273     1.1020     0.1333     4.5216    91.4688     0.0892
    281.000    13.3887    13.3478    38.5665    29.0862    3.62306    157.200     1.1020     0.1333     4.5216    91.4688     0.0892
    282.000    13.3887    13.3477    38.5665    29.0862    3.62240    157.171     1.1016     0.1331     4.5217    91.4709     0.0891
    283.000    13.3889    13.3477    38.5665    29.0863    3.62240    157.171     1.1016     0.1331     4.5217    91.4723     0.0891
    284.000    13.3889    13.3477    38.5666    29.0863    3.62306    157.200     1.0969     0.1315     4.5217    91.4723     0.0891
    285.000    13.3891    13.3477    38.5667    29.0863    3.62548    157.304     1.0966     0.1314     4.5217    91.4723     0.0891
    286.000    13.3891    13.3476    38.5666    29.0863    3.62548    157.304     1.0969     0.1315     4.5218    91.4738     0.0891
    287.000    13.3891    13.3476    38.5668    29.0865    3.62548    157.304     1.0969     0.1315     4.5220    91.4778     0.0890
    288.000    13.3890    13.3471    38.5670    29.0867    3.62509    157.287     1.1003     0.1327     4.5231    91.5010     0.0888
    289.000    13.3877    13.3457    38.5670    29.0870    3.62509    157.287     1.1034     0.1338     4.5231    91.5010     0.0888
    290.000    13.3858    13.3436    38.5667    29.0872    3.62509    157.287     1.1034     0.1338     4.5231    91.5010     0.0888
    291.000    13.3842    13.3419    38.5665    29.0874    3.62660    157.353     1.1003     0.1327     4.5227    91.4929     0.0889
    292.000    13.3830    13.3405    38.5662    29.0875    3.62679    157.361     1.1003     0.1327     4.5227    91.4919     0.0889
    293.000    13.3813    13.3387    38.5659    29.0877    3.62679    157.361     1.1038     0.1339     4.5227    91.4919     0.0889
    294.000    13.3802    13.3375    38.5658    29.0878    3.62660    157.353     1.0986     0.1321     4.5225    91.4891     0.0889
    295.000    13.3795    13.3366    38.5656    29.0879    3.62627    157.339     1.1026     0.1335     4.5225    91.4885     0.0889
    296.000    13.3792    13.3362    38.5656    29.0879    3.62518    157.291     1.1026     0.1335     4.5224    91.4869     0.0889
    297.000    13.3788    13.3355    38.5655    29.0880    3.62508    157.287     1.0978     0.1318     4.5222    91.4821     0.0890
    298.000    13.3787    13.3355    38.5655    29.0880    3.61984    157.060     1.0978     0.1318     4.5219    91.4757     0.0891
    299.000    13.3778    13.3343    38.5654    29.0882    3.61946    157.043     1.0979     0.1319     4.5218    91.4748     0.0891
    300.000    13.3759    13.3323    38.5652    29.0885    3.61906    157.026     1.0961     0.1312     4.5216    91.4692     0.0892
    301.000    13.3759    13.3323    38.5652    29.0886    3.61730    156.950     1.0979     0.1319     4.5214    91.4660     0.0892
    302.000    13.3759    13.3323    38.5652    29.0887    3.61467    156.835     1.0979     0.1319     4.5214    91.4660     0.0892
    303.000    13.3784    13.3340    38.5666    29.0891    3.61450    156.828     1.0957     0.1311     4.5214    91.4660     0.0892
    304.000    13.3784    13.3340    38.5668    29.0891    3.60938    156.606     1.0957     0.1311     4.5215    91.4668     0.0892
    305.000    13.3784    13.3340    38.5668    29.0893    3.60897    156.588     1.0987     0.1321     4.5216    91.4691     0.0892
    306.000    13.3784    13.3339    38.5667    29.0893    3.60890    156.585     1.0965     0.1314     4.5217    91.4708     0.0891
    307.000    13.3779    13.3333    38.5667    29.0894    3.60669    156.489     1.0989     0.1322     4.5220    91.4767     0.0891
    308.000    13.3776    13.3328    38.5668    29.0896    3.60609    156.463     1.1007     0.1328     4.5220    91.4767     0.0891
    309.000    13.3776    13.3326    38.5669    29.0897    3.60659    156.485     1.0995     0.1324     4.5220    91.4776     0.0891
    310.000    13.3775    13.3325    38.5668    29.0898    3.60659    156.485     1.0995     0.1324     4.5220    91.4779     0.0890
    311.000    13.3766    13.3312    38.5668    29.0898    3.60659    156.485     1.1007     0.1328     4.5225    91.4876     0.0889
    312.000    13.3764    13.3312    38.5667    29.0899    3.60826    156.557     1.1058     0.1346     4.5230    91.4981     0.0888
    313.000    13.3759    13.3304    38.5667    29.0900    3.60925    156.600     1.0995     0.1324     4.5230    91.4989     0.0888
    314.000    13.3757    13.3300    38.5665    29.0900    3.60995    156.630     1.1024     0.1334     4.5230    91.4993     0.0888
    315.000    13.3747    13.3287    38.5665    29.0901    3.60995    156.630     1.1058     0.1346     4.5234    91.5065     0.0888
    316.000    13.3746    13.3286    38.5664    29.0902    3.61354    156.786     1.1025     0.1335     4.5235    91.5084     0.0888
    317.000    13.3746    13.3285    38.5665    29.0902    3.61466    156.835     1.1024     0.1334     4.5236    91.5117     0.0887
    318.000    13.3747    13.3283    38.5664    29.0902    3.61466    156.835     1.1024     0.1334     4.5236    91.5117     0.0887
    319.000    13.3746    13.3283    38.5664    29.0902    3.61466    156.835     1.1025     0.1335     4.5235    91.5097     0.0887
    320.000    13.3746    13.3281    38.5664    29.0903    3.61145    156.695     1.1003     0.1327     4.5235    91.5097     0.0887
    321.000    13.3740    13.3273    38.5663    29.0904    3.61145    156.695     1.0988     0.1322     4.5235    91.5081     0.0888
    322.000    13.3730    13.3262    38.5660    29.0904    3.61145    156.695     1.1003     0.1327     4.5235    91.5081     0.0888
    323.000    13.3723    13.3253    38.5660    29.0905    3.61386    156.800     1.1028     0.1335     4.5235    91.5097     0.0887
    324.000    13.3713    13.3240    38.5660    29.0907    3.61695    156.934     1.0964     0.1314     4.5236    91.5112     0.0887
    325.000    13.3711    13.3240    38.5659    29.0907    3.61695    156.934     1.1021     0.1333     4.5238    91.5147     0.0887
    326.000    13.3711    13.3237    38.5657    29.0908    3.61695    156.934     1.1104     0.1362     4.5238    91.5147     0.0887
    327.000    13.3708    13.3232    38.5657    29.0908    3.61654    156.917     1.1116     0.1366     4.5238    91.5157     0.0887
    328.000    13.3708    13.3231    38.5658    29.0909    3.61654    156.917     1.1119     0.1368     4.5238    91.5157     0.0887
    329.000    13.3699    13.3219    38.5657    29.0910    3.61654    156.917     1.1119     0.1368     4.5238    91.5157     0.0887
    330.000    13.3699    13.3219    38.5657    29.0911    3.61654    156.917     1.1119     0.1368     4.5242    91.5235     0.0886
    331.000    13.3699    13.3217    38.5659    29.0911    3.61654    156.917     1.1119     0.1368     4.5246    91.5313     0.0885
    332.000    13.3699    13.3217    38.5657    29.0913    3.61410    156.811     1.1139     0.1375     4.5246    91.5313     0.0885
    333.000    13.3702    13.3217    38.5661    29.0914    3.61143    156.695     1.1063     0.1348     4.5246    91.5313     0.0885
    334.000    13.3707    13.3221    38.5664    29.0915    3.61072    156.664     1.1063     0.1348     4.5245    91.5291     0.0885
    335.000    13.3707    13.3221    38.5667    29.0917    3.60860    156.572     1.1063     0.1348     4.5244    91.5280     0.0885
    336.000    13.3707    13.3221    38.5668    29.0918    3.60383    156.365     1.1056     0.1345     4.5241    91.5212     0.0886
    337.000    13.3707    13.3217    38.5668    29.0919    3.59829    156.124     1.1031     0.1336     4.5241    91.5205     0.0886
    338.000    13.3705    13.3210    38.5667    29.0920    3.59691    156.065     1.1031     0.1336     4.5239    91.5181     0.0887
    339.000    13.3705    13.3210    38.5669    29.0922    3.59667    156.054     1.1031     0.1336     4.5238    91.5153     0.0887
    340.000    13.3705    13.3210    38.5670    29.0922    3.59618    156.033     1.1031     0.1336     4.5238    91.5153     0.0887
    341.000    13.3707    13.3211    38.5672    29.0923    3.59618    156.033     1.1050     0.1343     4.5238    91.5159     0.0887
    342.000    13.3710    13.3211    38.5674    29.0924    3.59618    156.033     1.1070     0.1350     4.5238    91.5159     0.0887
    343.000    13.3712    13.3211    38.5674    29.0925    3.59405    155.941     1.1073     0.1351     4.5240    91.5196     0.0886
    344.000    13.3712    13.3210    38.5674    29.0926    3.59405    155.941     1.1070     0.1350     4.5240    91.5196     0.0886
    345.000    13.3712    13.3209    38.5674    29.0926    3.59435    155.954     1.1070     0.1350     4.5242    91.5240     0.0886
    346.000    13.3712    13.3208    38.5673    29.0926    3.59405    155.941     1.0987     0.1321     4.5243    91.5261     0.0886
    347.000    13.3712    13.3207    38.5674    29.0926    3.59388    155.933     1.0962     0.1313     4.5243    91.5261     0.0886
    348.000    13.3712    13.3207    38.5674    29.0926    3.59181    155.843     1.0962     0.1313     4.5244    91.5280     0.0885
    349.000    13.3713    13.3207    38.5675    29.0927    3.59169    155.838     1.0962     0.1313     4.5244    91.5286     0.0885
    350.000    13.3715    13.3204    38.5675    29.0927    3.59073    155.796     1.1000     0.1326     4.5244    91.5280     0.0885
    351.000    13.3713    13.3202    38.5674    29.0927    3.58905    155.723     1.1014     0.1331     4.5244    91.5286     0.0885
    352.000    13.3715    13.3202    38.5675    29.0927    3.58905    155.723     1.1042     0.1341     4.5245    91.5309     0.0885
    353.000    13.3713    13.3200    38.5674    29.0927    3.58905    155.723     1.1042     0.1341     4.5246    91.5313     0.0885
    354.000    13.3715    13.3199    38.5673    29.0927    3.58971    155.752     1.1042     0.1341     4.5246    91.5313     0.0885
    355.000    13.3714    13.3197    38.5674    29.0927    3.59003    155.766     1.1042     0.1341     4.5247    91.5345     0.0885
    356.000    13.3714    13.3194    38.5673    29.0928    3.59006    155.767     1.1032     0.1337     4.5248    91.5353     0.0885
    357.000    13.3711    13.3194    38.5674    29.0929    3.59006    155.767     1.0932     0.1303     4.5249    91.5373     0.0884
    358.000    13.3708    13.3187    38.5672    29.0929    3.59392    155.935     1.0932     0.1303     4.5249    91.5391     0.0884
    359.000    13.3685    13.3162    38.5666    29.0929    3.60115    156.249     1.0932     0.1303     4.5251    91.5430     0.0884
    360.000    13.3648    13.3124    38.5658    29.0932    3.60682    156.495     1.0939     0.1305     4.5253    91.5454     0.0883
    361.000    13.3633    13.3107    38.5655    29.0932    3.60692    156.499     1.0949     0.1308     4.5254    91.5477     0.0883
    362.000    13.3615    13.3088    38.5652    29.0934    3.60692    156.499     1.0958     0.1312     4.5257    91.5530     0.0882
    363.000    13.3610    13.3082    38.5651    29.0934    3.60692    156.499     1.1010     0.1329     4.5259    91.5572     0.0882
    364.000    13.3601    13.3071    38.5649    29.0935    3.60692    156.499     1.1017     0.1332     4.5262    91.5635     0.0881
    365.000    13.3586    13.3055    38.5644    29.0935    3.60692    156.499     1.1062     0.1347     4.5262    91.5641     0.0881
    366.000    13.3570    13.3037    38.5643    29.0937    3.61017    156.640     1.1062     0.1347     4.5263    91.5654     0.0881
    367.000    13.3567    13.3033    38.5640    29.0937    3.61424    156.817     1.1062     0.1347     4.5265    91.5685     0.0881
    368.000    13.3551    13.3015    38.5636    29.0938    3.61738    156.953     1.0981     0.1319     4.5265    91.5701     0.0880
    369.000    13.3540    13.3003    38.5635    29.0939    3.61872    157.011     1.0977     0.1318     4.5265    91.5703     0.0880
    370.000    13.3529    13.2990    38.5634    29.0940    3.62092    157.107     1.0977     0.1318     4.5269    91.5774     0.0880
    371.000    13.3528    13.2988    38.5632    29.0941    3.62092    157.107     1.0977     0.1318     4.5269    91.5784     0.0879
    372.000    13.3519    13.2977    38.5633    29.0943    3.62092    157.107     1.1035     0.1338     4.5270    91.5793     0.0879
    373.000    13.3519    13.2976    38.5634    29.0943    3.61807    156.983     1.1042     0.1341     4.5270    91.5793     0.0879
    374.000    13.3518    13.2973    38.5633    29.0944    3.61807    156.983     1.1042     0.1341     4.5270    91.5802     0.0879
    375.000    13.3519    13.2973    38.5633    29.0944    3.61807    156.983     1.1042     0.1341     4.5270    91.5802     0.0879
    376.000    13.3519    13.2972    38.5633    29.0944    3.61813    156.986     1.1026     0.1335     4.5274    91.5872     0.0878
    377.000    13.3519    13.2971    38.5633    29.0944    3.62045    157.086     1.1025     0.1335     4.5274    91.5872     0.0878
    378.000    13.3519    13.2970    38.5633    29.0944    3.62046    157.087     1.1017     0.1332     4.5274    91.5872     0.0878
    379.000    13.3519    13.2969    38.5633    29.0944    3.62046    157.087     1.1025     0.1335     4.5274    91.5872     0.0878
    380.000    13.3517    13.2964    38.5631    29.0945    3.62045    157.086     1.1025     0.1335     4.5274    91.5874     0.0878
    381.000    13.3515    13.2960    38.5631    29.0945    3.61913    157.029     1.0937     0.1305     4.5274    91.5874     0.0878
    382.000    13.3511    13.2955    38.5630    29.0945    3.61659    156.919     1.0927     0.1301     4.5274    91.5876     0.0878
    383.000    13.3504    13.2946    38.5629    29.0947    3.61600    156.893     1.0985     0.1321     4.5274    91.5874     0.0878
    384.000    13.3501    13.2942    38.5629    29.0947    3.61600    156.893     1.0985     0.1321     4.5273    91.5868     0.0878
    385.000    13.3494    13.2933    38.5628    29.0948    3.61600    156.893     1.0932     0.1302     4.5273    91.5859     0.0879
    386.000    13.3489    13.2927    38.5627    29.0949    3.61874    157.012     1.0985     0.1321     4.5273    91.5868     0.0878
    387.000    13.3486    13.2921    38.5626    29.0950    3.62022    157.077     1.0992     0.1323     4.5273    91.5868     0.0878
    388.000    13.3483    13.2919    38.5627    29.0950    3.62022    157.077     1.1003     0.1327     4.5275    91.5909     0.0878
    389.000    13.3482    13.2916    38.5626    29.0950    3.62022    157.077     1.1003     0.1327     4.5275    91.5909     0.0878
    390.000    13.3472    13.2904    38.5625    29.0952    3.61975    157.056     1.1003     0.1327     4.5276    91.5919     0.0878
    391.000    13.3468    13.2899    38.5623    29.0952    3.61968    157.053     1.1003     0.1327     4.5276    91.5919     0.0878
    392.000    13.3464    13.2893    38.5622    29.0952    3.61902    157.024     1.0948     0.1308     4.5276    91.5919     0.0878
    393.000    13.3459    13.2887    38.5622    29.0953    3.61485    156.844     1.0948     0.1308     4.5277    91.5941     0.0878
    394.000    13.3454    13.2880    38.5621    29.0953    3.61387    156.801     1.0948     0.1308     4.5277    91.5941     0.0878
    395.000    13.3453    13.2878    38.5619    29.0954    3.61204    156.722     1.1026     0.1335     4.5278    91.5957     0.0878
    396.000    13.3442    13.2865    38.5618    29.0955    3.61204    156.722     1.1067     0.1349     4.5278    91.5957     0.0878
    397.000    13.3437    13.2859    38.5616    29.0955    3.61204    156.722     1.1118     0.1367     4.5278    91.5957     0.0878
    398.000    13.3432    13.2852    38.5614    29.0955    3.61221    156.729     1.1118     0.1367     4.5278    91.5967     0.0878
    399.000    13.3426    13.2845    38.5614    29.0956    3.61457    156.832     1.1118     0.1367     4.5278    91.5967     0.0878
    400.000    13.3422    13.2839    38.5613    29.0956    3.61516    156.857     1.1132     0.1372     4.5277    91.5954     0.0878
    401.000    13.3418    13.2834    38.5612    29.0957    3.61516    156.857     1.1132     0.1372     4.5275    91.5913     0.0878
    402.000    13.3409    13.2824    38.5610    29.0957    3.61516    156.857     1.1149     0.1378     4.5274    91.5877     0.0878
    403.000    13.3405    13.2818    38.5609    29.0957    3.61462    156.834     1.1149     0.1378     4.5273    91.5868     0.0878
    404.000    13.3401    13.2813    38.5608    29.0957    3.61462    156.834     1.1105     0.1362     4.5273    91.5856     0.0879
    405.000    13.3392    13.2802    38.5598    29.0953    3.61462    156.834     1.0974     0.1317     4.5273    91.5856     0.0879
    406.000    13.3392    13.2801    38.5596    29.0952    3.61628    156.906     1.0867     0.1280     4.5273    91.5856     0.0879
    407.000    13.3383    13.2790    38.5595    29.0952    3.61477    156.840     1.0974     0.1317     4.5275    91.5901     0.0878
